"Viridis_ICM2.spc - RawData"
"Wavelength nm.","Abs."
250.0,0.96708
251.0,0.96161
252.0,0.96075
253.0,0.95630
254.0,0.95650
255.0,0.96849
256.0,0.97375
257.0,0.97886
258.0,1.00292
259.0,1.00562
260.0,1.01528
261.0,1.03165
262.0,1.04380
263.0,1.06284
264.0,1.07179
265.0,1.09152
266.0,1.10568
267.0,1.13051
268.0,1.14742
269.0,1.16407
270.0,1.18177
271.0,1.19677
272.0,1.19954
273.0,1.21523
274.0,1.22395
275.0,1.22039
276.0,1.21600
277.0,1.21830
278.0,1.21136
279.0,1.20986
280.0,1.19512
281.0,1.18609
282.0,1.17146
283.0,1.14250
284.0,1.12535
285.0,1.09548
286.0,1.05506
287.0,1.01633
288.0,0.97696
289.0,0.94762
290.0,0.93247
291.0,0.90827
292.0,0.87145
293.0,0.79450
294.0,0.74514
295.0,0.68181
296.0,0.64501
297.0,0.60977
298.0,0.57843
299.0,0.56051
300.0,0.53510
301.0,0.50780
302.0,0.48949
303.0,0.48505
304.0,0.46405
305.0,0.45903
306.0,0.44524
307.0,0.44447
308.0,0.43974
309.0,0.44054
310.0,0.43768
311.0,0.43947
312.0,0.43775
313.0,0.43708
314.0,0.44924
315.0,0.44781
316.0,0.44684
317.0,0.45329
318.0,0.44933
319.0,0.45759
320.0,0.46139
321.0,0.46126
322.0,0.47080
323.0,0.46535
324.0,0.46638
325.0,0.46718
326.0,0.46904
327.0,0.46916
328.0,0.47402
329.0,0.47933
330.0,0.47865
331.0,0.47664
332.0,0.47660
333.0,0.48429
334.0,0.49137
335.0,0.49097
336.0,0.49979
337.0,0.50366
338.0,0.51124
339.0,0.51577
340.0,0.52077
341.0,0.51551
342.0,0.52081
343.0,0.51751
344.0,0.51931
345.0,0.51579
346.0,0.52024
347.0,0.52407
348.0,0.52948
349.0,0.53513
350.0,0.53714
351.0,0.54401
352.0,0.55024
353.0,0.55641
354.0,0.56054
355.0,0.56870
356.0,0.57883
357.0,0.58386
358.0,0.58748
359.0,0.59511
360.0,0.59718
361.0,0.60513
362.0,0.60935
363.0,0.61500
364.0,0.61995
365.0,0.63098
366.0,0.63135
367.0,0.63982
368.0,0.64741
369.0,0.65936
370.0,0.66257
371.0,0.67238
372.0,0.68048
373.0,0.69126
374.0,0.69480
375.0,0.70838
376.0,0.71031
377.0,0.71832
378.0,0.72749
379.0,0.73635
380.0,0.74477
381.0,0.75478
382.0,0.76218
383.0,0.77103
384.0,0.78667
385.0,0.79671
386.0,0.80960
387.0,0.82125
388.0,0.83392
389.0,0.84949
390.0,0.86575
391.0,0.87916
392.0,0.89344
393.0,0.90817
394.0,0.92151
395.0,0.93598
396.0,0.94464
397.0,0.95543
398.0,0.96223
399.0,0.96591
400.0,0.96737
401.0,0.96391
402.0,0.95998
403.0,0.95071
404.0,0.94590
405.0,0.93201
406.0,0.92036
407.0,0.90723
408.0,0.89773
409.0,0.88205
410.0,0.87313
411.0,0.85973
412.0,0.85343
413.0,0.84490
414.0,0.83875
415.0,0.83608
416.0,0.83260
417.0,0.82755
418.0,0.82567
419.0,0.82587
420.0,0.81772
421.0,0.81570
422.0,0.80502
423.0,0.79765
424.0,0.78664
425.0,0.77370
426.0,0.75889
427.0,0.74505
428.0,0.72626
429.0,0.70651
430.0,0.68693
431.0,0.66796
432.0,0.64833
433.0,0.62805
434.0,0.60935
435.0,0.59690
436.0,0.58361
437.0,0.57814
438.0,0.57146
439.0,0.57173
440.0,0.57629
441.0,0.58658
442.0,0.60301
443.0,0.62143
444.0,0.64482
445.0,0.66751
446.0,0.69504
447.0,0.71885
448.0,0.73815
449.0,0.75453
450.0,0.76302
451.0,0.76738
452.0,0.76805
453.0,0.76061
454.0,0.74967
455.0,0.73548
456.0,0.71535
457.0,0.69422
458.0,0.67042
459.0,0.64100
460.0,0.61643
461.0,0.58663
462.0,0.55806
463.0,0.52906
464.0,0.50860
465.0,0.48696
466.0,0.47019
467.0,0.45810
468.0,0.44799
469.0,0.44344
470.0,0.44483
471.0,0.45060
472.0,0.46136
473.0,0.47969
474.0,0.50184
475.0,0.52890
476.0,0.56262
477.0,0.59650
478.0,0.63014
479.0,0.66300
480.0,0.69082
481.0,0.70854
482.0,0.71963
483.0,0.71732
484.0,0.70475
485.0,0.68053
486.0,0.65133
487.0,0.61672
488.0,0.57713
489.0,0.53872
490.0,0.49585
491.0,0.45541
492.0,0.41778
493.0,0.38304
494.0,0.35319
495.0,0.32738
496.0,0.30390
497.0,0.28578
498.0,0.26830
499.0,0.25653
500.0,0.24665
501.0,0.23735
502.0,0.22988
503.0,0.22520
504.0,0.22016
505.0,0.21657
506.0,0.21365
507.0,0.21237
508.0,0.21039
509.0,0.20804
510.0,0.20662
511.0,0.20533
512.0,0.20599
513.0,0.20420
514.0,0.20402
515.0,0.20330
516.0,0.20353
517.0,0.20266
518.0,0.20268
519.0,0.20220
520.0,0.20130
521.0,0.20169
522.0,0.20118
523.0,0.19970
524.0,0.19969
525.0,0.19923
526.0,0.19769
527.0,0.19608
528.0,0.19219
529.0,0.19106
530.0,0.18899
531.0,0.18531
532.0,0.18213
533.0,0.17878
534.0,0.17522
535.0,0.17136
536.0,0.16749
537.0,0.16343
538.0,0.16002
539.0,0.15588
540.0,0.15287
541.0,0.14901
542.0,0.14471
543.0,0.14244
544.0,0.13854
545.0,0.13476
546.0,0.13228
547.0,0.12886
548.0,0.12603
549.0,0.12491
550.0,0.12162
551.0,0.11972
552.0,0.11744
553.0,0.11582
554.0,0.11410
555.0,0.11479
556.0,0.11374
557.0,0.11265
558.0,0.11047
559.0,0.10955
560.0,0.11009
561.0,0.10941
562.0,0.10787
563.0,0.10597
564.0,0.10606
565.0,0.10555
566.0,0.10543
567.0,0.10550
568.0,0.10479
569.0,0.10532
570.0,0.10537
571.0,0.10555
572.0,0.10634
573.0,0.10630
574.0,0.10615
575.0,0.10771
576.0,0.10891
577.0,0.11022
578.0,0.11095
579.0,0.11115
580.0,0.11250
581.0,0.11402
582.0,0.11522
583.0,0.11721
584.0,0.11792
585.0,0.12006
586.0,0.12232
587.0,0.12566
588.0,0.12583
589.0,0.13085
590.0,0.13332
591.0,0.13605
592.0,0.14006
593.0,0.14332
594.0,0.14910
595.0,0.15352
596.0,0.15993
597.0,0.16483
598.0,0.16993
599.0,0.17621
600.0,0.17985
601.0,0.18390
602.0,0.18736
603.0,0.18916
604.0,0.18959
605.0,0.18840
606.0,0.18511
607.0,0.18205
608.0,0.17633
609.0,0.17044
610.0,0.16420
611.0,0.15674
612.0,0.14850
613.0,0.14213
614.0,0.13456
615.0,0.12781
616.0,0.12298
617.0,0.11735
618.0,0.11255
619.0,0.10805
620.0,0.10408
621.0,0.10042
622.0,0.09856
623.0,0.09508
624.0,0.09304
625.0,0.09033
626.0,0.08970
627.0,0.08638
628.0,0.08528
629.0,0.08432
630.0,0.08138
631.0,0.08152
632.0,0.07914
633.0,0.07748
634.0,0.07814
635.0,0.07785
636.0,0.07512
637.0,0.07457
638.0,0.07413
639.0,0.07305
640.0,0.07215
641.0,0.07235
642.0,0.07144
643.0,0.07194
644.0,0.07160
645.0,0.07031
646.0,0.07046
647.0,0.07084
648.0,0.06984
649.0,0.06776
650.0,0.06862
651.0,0.06786
652.0,0.06766
653.0,0.06726
654.0,0.06641
655.0,0.06737
656.0,0.06616
657.0,0.06620
658.0,0.06648
659.0,0.06550
660.0,0.06645
661.0,0.06616
662.0,0.06523
663.0,0.06604
664.0,0.06588
665.0,0.06649
666.0,0.06670
667.0,0.06658
668.0,0.06778
669.0,0.06734
670.0,0.06658
671.0,0.06656
672.0,0.06669
673.0,0.06769
674.0,0.06691
675.0,0.06795
676.0,0.06718
677.0,0.06767
678.0,0.06760
679.0,0.06815
680.0,0.07057
681.0,0.07153
682.0,0.07014
683.0,0.07037
684.0,0.07055
685.0,0.07026
686.0,0.07168
687.0,0.07063
688.0,0.07128
689.0,0.07296
690.0,0.07167
691.0,0.07229
692.0,0.07392
693.0,0.07275
694.0,0.07347
695.0,0.07402
696.0,0.07241
697.0,0.07357
698.0,0.07517
699.0,0.07340
700.0,0.07476
701.0,0.07366
702.0,0.07415
703.0,0.07422
704.0,0.07388
705.0,0.07612
706.0,0.07643
707.0,0.07632
708.0,0.07676
709.0,0.07745
710.0,0.07523
711.0,0.07636
712.0,0.07665
713.0,0.07779
714.0,0.07798
715.0,0.07712
716.0,0.07917
717.0,0.07717
718.0,0.07768
719.0,0.07792
720.0,0.07674
721.0,0.07901
722.0,0.07773
723.0,0.07834
724.0,0.07823
725.0,0.07747
726.0,0.07960
727.0,0.07916
728.0,0.07674
729.0,0.07679
730.0,0.07767
731.0,0.07724
732.0,0.07712
733.0,0.07695
734.0,0.07577
735.0,0.07603
736.0,0.07901
737.0,0.07626
738.0,0.07689
739.0,0.07676
740.0,0.07545
741.0,0.07735
742.0,0.07747
743.0,0.07565
744.0,0.07544
745.0,0.07495
746.0,0.07488
747.0,0.07732
748.0,0.07661
749.0,0.07678
750.0,0.07816
751.0,0.07511
752.0,0.07460
753.0,0.07350
754.0,0.07554
755.0,0.07351
756.0,0.07763
757.0,0.07657
758.0,0.07598
759.0,0.07642
760.0,0.07737
761.0,0.07677
762.0,0.07724
763.0,0.07765
764.0,0.07649
765.0,0.07685
766.0,0.07825
767.0,0.07870
768.0,0.07907
769.0,0.07762
770.0,0.08135
771.0,0.07956
772.0,0.07785
773.0,0.08160
774.0,0.08373
775.0,0.08159
776.0,0.08300
777.0,0.08109
778.0,0.08846
779.0,0.08461
780.0,0.08668
781.0,0.08784
782.0,0.08767
783.0,0.08737
784.0,0.09009
785.0,0.09200
786.0,0.09225
787.0,0.09283
788.0,0.09408
789.0,0.09411
790.0,0.09774
791.0,0.09839
792.0,0.09694
793.0,0.09831
794.0,0.09938
795.0,0.10183
796.0,0.10038
797.0,0.10256
798.0,0.10298
799.0,0.10502
800.0,0.10340
801.0,0.10884
802.0,0.11253
803.0,0.11006
804.0,0.11296
805.0,0.10740
806.0,0.11646
807.0,0.11259
808.0,0.10874
809.0,0.11157
810.0,0.11744
811.0,0.12028
812.0,0.11879
813.0,0.11379
814.0,0.11666
815.0,0.11804
816.0,0.12083
817.0,0.11829
818.0,0.12110
819.0,0.11707
820.0,0.11965
821.0,0.13165
822.0,0.12635
823.0,0.12626
824.0,0.13359
825.0,0.12670
826.0,0.13332
827.0,0.12948
828.0,0.13117
829.0,0.13363
830.0,0.13687
831.0,0.13782
832.0,0.13606
833.0,0.13429
834.0,0.12917
835.0,0.13360
836.0,0.13199
837.0,0.12999
838.0,0.12725
839.0,0.12371
840.0,0.12283
841.0,0.12013
842.0,0.11816
843.0,0.11509
844.0,0.11155
845.0,0.11356
846.0,0.11103
847.0,0.10451
848.0,0.10647
849.0,0.10555
850.0,0.10141
851.0,0.09947
852.0,0.10215
853.0,0.09643
854.0,0.09525
855.0,0.10080
856.0,0.09384
857.0,0.08914
858.0,0.08642
859.0,0.09325
860.0,0.08443
861.0,0.08871
862.0,0.08866
863.0,0.08672
864.0,0.08871
865.0,0.08870
866.0,0.08008
867.0,0.08045
868.0,0.08540
869.0,0.08403
870.0,0.08328
871.0,0.08443
872.0,0.08433
873.0,0.08286
874.0,0.08514
875.0,0.08494
876.0,0.08580
877.0,0.08451
878.0,0.08271
879.0,0.08326
880.0,0.08700
881.0,0.08572
882.0,0.08637
883.0,0.08837
884.0,0.08680
885.0,0.09131
886.0,0.08818
887.0,0.09279
888.0,0.09092
889.0,0.09424
890.0,0.09559
891.0,0.09350
892.0,0.09094
893.0,0.09544
894.0,0.09859
895.0,0.09434
896.0,0.09890
897.0,0.09686
898.0,0.09808
899.0,0.09993
900.0,0.09911
901.0,0.09940
902.0,0.10172
903.0,0.10159
904.0,0.10196
905.0,0.10441
906.0,0.10619
907.0,0.10572
908.0,0.10657
909.0,0.10979
910.0,0.11472
911.0,0.11117
912.0,0.11506
913.0,0.11511
914.0,0.11816
915.0,0.11889
916.0,0.12163
917.0,0.12024
918.0,0.12444
919.0,0.12245
920.0,0.12929
921.0,0.12786
922.0,0.13018
923.0,0.13416
924.0,0.13609
925.0,0.13618
926.0,0.14092
927.0,0.14315
928.0,0.14554
929.0,0.14777
930.0,0.15109
931.0,0.15309
932.0,0.15545
933.0,0.15674
934.0,0.16075
935.0,0.16531
936.0,0.16772
937.0,0.17039
938.0,0.17617
939.0,0.18046
940.0,0.18135
941.0,0.18484
942.0,0.18978
943.0,0.19308
944.0,0.19792
945.0,0.20351
946.0,0.20797
947.0,0.21264
948.0,0.21692
949.0,0.22118
950.0,0.22655
951.0,0.23068
952.0,0.23411
953.0,0.24466
954.0,0.24707
955.0,0.25661
956.0,0.26238
957.0,0.26719
958.0,0.27240
959.0,0.28337
960.0,0.28958
961.0,0.29777
962.0,0.30486
963.0,0.31467
964.0,0.32213
965.0,0.32959
966.0,0.33610
967.0,0.35109
968.0,0.35565
969.0,0.36813
970.0,0.37498
971.0,0.38756
972.0,0.39621
973.0,0.40936
974.0,0.42221
975.0,0.43366
976.0,0.44816
977.0,0.46008
978.0,0.47572
979.0,0.48589
980.0,0.50188
981.0,0.51607
982.0,0.52946
983.0,0.54364
984.0,0.56123
985.0,0.57932
986.0,0.59909
987.0,0.61001
988.0,0.62903
989.0,0.64828
990.0,0.66664
991.0,0.68696
992.0,0.70150
993.0,0.72178
994.0,0.74402
995.0,0.76203
996.0,0.77777
997.0,0.80083
998.0,0.81549
999.0,0.83979
1000.0,0.85610
1001.0,0.87447
1002.0,0.88910
1003.0,0.90531
1004.0,0.92235
1005.0,0.93575
1006.0,0.94821
1007.0,0.95695
1008.0,0.96529
1009.0,0.97785
1010.0,0.99449
1011.0,0.99379
1012.0,1.00329
1013.0,1.01503
1014.0,1.00438
1015.0,0.99764
1016.0,1.00132
1017.0,1.00412
1018.0,0.99965
1019.0,0.99044
1020.0,0.97853
1021.0,0.96986
1022.0,0.96391
1023.0,0.94568
1024.0,0.93436
1025.0,0.91703
1026.0,0.90514
1027.0,0.88428
1028.0,0.86498
1029.0,0.84735
1030.0,0.82201
1031.0,0.80364
1032.0,0.77347
1033.0,0.75802
1034.0,0.73360
1035.0,0.70486
1036.0,0.68478
1037.0,0.66162
1038.0,0.64118
1039.0,0.61260
1040.0,0.59299
1041.0,0.56379
1042.0,0.54079
1043.0,0.52120
1044.0,0.49390
1045.0,0.47480
1046.0,0.44957
1047.0,0.42857
1048.0,0.40729
1049.0,0.38692
1050.0,0.36709
1051.0,0.34959
1052.0,0.33100
1053.0,0.31156
1054.0,0.29086
1055.0,0.27816
1056.0,0.26112
1057.0,0.24744
1058.0,0.23149
1059.0,0.22139
1060.0,0.20697
1061.0,0.19709
1062.0,0.18049
1063.0,0.17322
1064.0,0.16128
1065.0,0.15164
1066.0,0.14279
1067.0,0.13561
1068.0,0.12565
1069.0,0.12010
1070.0,0.11246
1071.0,0.10723
1072.0,0.10025
1073.0,0.09345
1074.0,0.08721
1075.0,0.08387
1076.0,0.07759
1077.0,0.07510
1078.0,0.07048
1079.0,0.06751
1080.0,0.06176
1081.0,0.05917
1082.0,0.05620
1083.0,0.05260
1084.0,0.05381
1085.0,0.04946
1086.0,0.04554
1087.0,0.04326
1088.0,0.04237
1089.0,0.04106
1090.0,0.03837
1091.0,0.03763
1092.0,0.03419
1093.0,0.03437
1094.0,0.03361
1095.0,0.03107
1096.0,0.03282
1097.0,0.03027
1098.0,0.02970
1099.0,0.02856
1100.0,0.02769
1101.0,0.02606
1102.0,0.02596
1103.0,0.02388
1104.0,0.02518
1105.0,0.02547
1106.0,0.02627
1107.0,0.02431
1108.0,0.02423
1109.0,0.02116
1110.0,0.02067
1111.0,0.02174
1112.0,0.02129
1113.0,0.02024
1114.0,0.02176
1115.0,0.02281
1116.0,0.01940
1117.0,0.01892
1118.0,0.01808
1119.0,0.01922
1120.0,0.01872
1121.0,0.01873
1122.0,0.01940
1123.0,0.01857
1124.0,0.01796
1125.0,0.01809
1126.0,0.01931
1127.0,0.01969
1128.0,0.01756
1129.0,0.01834
1130.0,0.01799
1131.0,0.01762
1132.0,0.02066
1133.0,0.01810
1134.0,0.02018
1135.0,0.01822
1136.0,0.01848
1137.0,0.01780
1138.0,0.01739
1139.0,0.01704
1140.0,0.01932
1141.0,0.01742
1142.0,0.01851
1143.0,0.01754
1144.0,0.01799
1145.0,0.01784
1146.0,0.01931
1147.0,0.01942
1148.0,0.01876
1149.0,0.02010
1150.0,0.01945
1151.0,0.01671
1152.0,0.01716
1153.0,0.01850
1154.0,0.02062
1155.0,0.02012
1156.0,0.01877
1157.0,0.01946
1158.0,0.01944
1159.0,0.01876
1160.0,0.01836
1161.0,0.01860
1162.0,0.01848
1163.0,0.01779
1164.0,0.01362
1165.0,0.01661
1166.0,0.01593
1167.0,0.01707
1168.0,0.01610
1169.0,0.01579
1170.0,0.01585
1171.0,0.01534
1172.0,0.01887
1173.0,0.01549
1174.0,0.01651
1175.0,0.01618
1176.0,0.01682
1177.0,0.01695
1178.0,0.01650
1179.0,0.01585
1180.0,0.01609
1181.0,0.01757
1182.0,0.01689
1183.0,0.01594
1184.0,0.01582
1185.0,0.01512
1186.0,0.01268
1187.0,0.01316
1188.0,0.01598
1189.0,0.01439
1190.0,0.01450
1191.0,0.01457
1192.0,0.01625
1193.0,0.01257
1194.0,0.01400
1195.0,0.01413
1196.0,0.01375
1197.0,0.01139
1198.0,0.01443
1199.0,0.01200
1200.0,0.01492
